(114:0.03638271466202102483,(((15:0.15779086481031520672,((27:0.04196638463164526628,((11:0.19522333583380888089,25:0.11377343091482869375):0.05316635872182343125[56],26:0.04084793804751191831):0.07836969784496568281[60]):0.04709353892678479897[40],(14:0.18502510732537139071,(21:0.02813026855183375224,(23:0.09183871673382340561,22:0.04079831513040173968):0.03629723287263269399[87]):0.14565373071035159214[100]):0.07225522988297537752[79]):0.06640890977031992104[51]):0.25180615311809573242[99],((169:0.15920817507565249160,170:0.16812569648745301354):0.24796963873183572313[100],(118:0.28705618563784829345,((117:0.19839171607579075829,(108:0.07364885048787933597,109:0.11456827426971437356):0.06184602340864552017[92]):0.07884868797517935457[95],110:0.12290134545688254086):0.15902317586877171007[100]):0.28546479553307857469[100]):0.08051807569776509022[48]):0.58906977881483879589[100],((((((41:0.05620980167147790474,42:0.10552463506053524900):0.41766241642887480534[100],32:0.53103826855333324808):0.28674324220191943491[100],(((10:0.32611415200718579799,9:0.46476764894136868289):0.12043144929997993964[91],(44:0.29225303863342400046,(((13:0.19748962008808410018,28:0.20473310906735395220):0.11607201134214439886[88],(12:0.20413365806541466929,(24:0.20883612246844165949,16:0.18213824207395262755):0.15617900453618252521[96]):0.04343494445418395050[40]):0.06082866470140713133[39],((((19:0.12770474462972492002,(17:0.07344820097092240319,18:0.03135907314397968354):0.09798739648935259061[98]):0.14342036174092431811[100],20:0.30664029408470105942):0.19385449343768060282[100],(30:0.18122132704757076826,29:0.19886209943309673953):0.06843471436585964185[89]):0.12242545234937995957[88],43:0.21154493190513171119):0.14253231051472151081[98]):0.11727492450771083432[90]):0.21267456364622308596[98]):0.13288988398191012297[95],(35:0.03156693158338786526,(33:0.06425466589625625224,40:0.07672743612508572952):0.04015138795179137160[95]):0.38692591995820257988[100]):0.06143217591510859166[64]):0.17226538341823288691[97],((171:0.45778165561897221636,(185:0.50500884603401929862,(98:0.25743081625878083685,((174:0.31512375689941724000,((80:0.09037710163373201266,81:0.10927916905089211930):0.05830841514092690442[96],(83:0.07281209628598982186,77:0.03657539443047137795):0.07095414114956594132[100]):0.16831589208462990892[100]):0.05469573372796522615[34],(((61:0.25846734462619225248,62:0.25454447587932815811):0.09760777085495883632[62],((58:0.24460738833006193116,((55:0.06947687321133849681,59:0.07912409892125665811):0.14120316985023531609[100],(53:0.05547246511939088465,54:0.06524386928405861985):0.15021584479443900184[100]):0.03916745382336469378[63]):0.06093369601297300014[50],(186:0.25290509096269198075,63:0.27606817908683728424):0.08974546283967059501[43]):0.05282674977890210177[21]):0.06594204818119379918[33],60:0.31723039141713482714):0.09294643013663145270[94]):0.05297429666546688010[28]):0.03945765717377495985[35]):0.03970377376050178431[47]):0.04410031478271347893[23],((((6:0.35763711577913703810,100:0.31736917628823785309):0.08463607066217999908[26],((8:0.20196586951068185023,102:0.16004810139613484532):0.11726892822268460137[98],101:0.20863071548630657270):0.07333859005752993432[63]):0.11356766644207089145[35],(((166:0.31817260040579153912,(164:0.42781295782036504738,165:0.38806220903084620577):0.09676429614904795418[85]):0.07012487345978481168[69],(((112:0.41330926969496417644,(7:0.22691539940421073807,173:0.39173967849387175688):0.05614536580372121027[60]):0.18773162324466027839[100],111:0.67556771762595424491):0.14601922245411552703[97],(113:0.37120211690165816343,172:0.35460827637952974101):0.07621710563863995369[40]):0.18169700461164212113[100]):0.07551539433106714549[65],(((72:0.16978924315334176232,71:0.18798771405128014700):0.27436148156734968540[100],168:0.33149567282787045785):0.07965038551495959296[56],(((104:0.08915922896058021963,107:0.11065628236162403097):0.07660084295147388811[95],((106:0.14910608465584435089,(105:0.10117668394853662761,103:0.02843376115350973454):0.17225887307639944912[100]):0.04154622965435353366[36],115:0.36362939258659271458):0.03275262181836856995[45]):0.15401439051725440699[100],((124:0.02618046582348576221,129:0.02833197096771120083):0.19014205814711948594[100],(((128:0.03757654059959872339,157:0.02378827452172495999):0.09176134388722829993[100],((158:0.02473856616970177350,(160:0.02829715564866632643,(163:0.03935660552167739856,(155:0.01243062144866580870,153:0.06536420197962131140):0.02806299904654718791[79]):0.01145747058336702914[31]):0.05590326584758309458[77]):0.02447455592298770910[47],(131:0.15624275836725060040,(123:0.04858744702750636413,162:0.10842316664658814551):0.05522228879292017528[99]):0.02306546325551636287[68]):0.04942693206341678552[71]):0.08144050827233050016[76],(((121:0.06080195856305652125,(149:0.02972782330566400844,((148:0.03040238787540696860,(139:0.05227992278788204383,(130:0.05548110497813579789,(120:0.06364708665766524720,141:0.04931290941453091853):0.01736094662387174456[35]):0.01313919916357315400[24]):0.01672589610061223780[19]):0.02221772841338286869[11],136:0.04024449782045658175):0.01466692711693270285[11]):0.01666136532292217948[24]):0.10891153619874230363[96],((127:0.04706745725618724507,((143:0.11110862540955697420,151:0.15867517653331666971):0.01862643693289516011[37],((134:0.02994750389574760835,122:0.04220627214767989216):0.02961449611230684842[68],((119:0.04324290904943498687,(150:0.01965719104886749780,140:0.04913075944949465979):0.01552457956670487416[45]):0.01988412862896532171[54],152:0.03059652626955880472):0.01474052086357009912[30]):0.01494664630314330479[15]):0.00565220915051103251[14]):0.05154107568277570273[84],(135:0.09452358244706465795,((146:0.05550780036447405114,((144:0.03838126076418265503,145:0.04422175974269749316):0.02526419859690267819[83],((126:0.02914868213234492536,147:0.05049624370645658389):0.05720762917087405391[100],(142:0.01001605329348837468,(133:0.03281156238352907206,137:0.04589012401031394156):0.01566485797062274962[50]):0.04332311897637746573[84]):0.02372598019960776849[58]):0.01821232376529418814[49]):0.04696741384579591894[83],125:0.08035978040857767735):0.05910587871714482328[75]):0.05698567971719708386[48]):0.03909105519968266579[47]):0.23612820966285491542[100],138:0.29182828845141139951):0.10253061763350920788[70]):0.06277621867166070790[47]):0.27630538281671790379[100]):0.16481767260894730764[97]):0.09560661616172086430[45]):0.07701023082911696849[29]):0.11230710082328855537[57],((88:0.17382612093730687164,(76:0.08407388856379886810,74:0.11900061798399334811):0.06486058714421048810[99]):0.38738063315428039601[100],((183:0.37871952259031593790,(64:0.42141647418639061051,(65:0.26705946718897471959,(((66:0.11452134588215308331,67:0.11209949638118668624):0.10257539972404616790[100],(56:0.09617094949275359350,57:0.37247863600294472963):0.09360381370935991208[90]):0.10032999312075195630[100],(47:0.11966399525481932753,(50:0.07794408635063318491,(52:0.08074767223456608134,(46:0.02794230528845962833,((49:0.08583264589654544807,51:0.01713018250073470791):0.03745944232828747611[54],48:0.03242883336704369124):0.02135227239202678803[39]):0.07992528934173434574[95]):0.10856586720036830174[100]):0.06376851044324999274[97]):0.33202631434187901416[100]):0.03707319237747438989[52]):0.06893659367178515962[87]):0.06971523453289694972[44]):0.04747703147556744246[12],(167:0.24819286838465537404,(70:0.25938607299246141391,(68:0.27851255938095731413,(78:0.24925640362895037927,(99:0.09365096529965825922,(94:0.06991083451741818278,97:0.06965444030911423223):0.03470806071382217389[68]):0.05923842712025123580[88]):0.18264041248373660831[100]):0.05298964577916247254[28]):0.03359511843776662871[18]):0.01558355419273808190[10]):0.04758366937827690490[31]):0.03148566731887447040[43]):0.02211478020488960930[10]):0.09670685565148191831[40]):0.33217532950872891151[100],(((((36:0.02185424721670115381,(39:0.05549960435034945183,34:0.06270080975995241668):0.02457763379858295821[72]):0.17037797149035430189[100],(31:0.31699856597159098426,(37:0.06665060927047931905,((92:0.04386016415332692764,93:0.03915340198836728125):0.05345947223968643136[93],(96:0.04876858565638204218,95:0.04084789751562349636):0.11781817840102992712[100]):0.45373586237485941108[100]):0.09615457994997395064[61]):0.03363698097148767191[27]):0.04889679824250833806[23],38:0.19780297350232059483):0.09328916807984262427[69],69:0.32878370184046479263):0.15998388304172520002[96],((184:0.22925524120369586423,(75:0.12665225746563421594,73:0.13405144251960746105):0.15379363833835654751[100]):0.10641716041080663546[99],(((91:0.11461375820225554178,((89:0.18064525669769557203,85:0.03957981357049349114):0.03306837177505610181[36],(87:0.09758930173568008959,(84:0.10782316702170956224,90:0.04819705899715247266):0.04035477862691189133[72]):0.07812283594044597268[69]):0.00730078300720420504[15]):0.04893924153799003585[44],86:0.12422573747706132374):0.06306038429103311138[81],((79:0.11338300603629787588,82:0.06276821492753158205):0.05933592095742782485[99],(159:0.04927234400641061773,(((154:0.00663471139718293211,156:0.12698885820252928114):0.08770656705269434805[100],161:0.09088220542733009555):0.04676836283761409002[89],(132:0.12648429297240929015,45:0.16661101094788988153):0.03374765633963012351[44]):0.06186837448196842726[66]):0.08952984292026471003[69]):0.03058974260780195076[44]):0.29310110242380710277[100]):0.21130113894932558982[100]):0.29171500156770968637[99]):0.40462147430090567024[99],((178:0.39299300627812105979,(179:0.41226690313219060968,177:0.44452139826103975739):0.34391946302817649750[100]):0.49164794177888365700[100],(((5:0.91572548404266262967,175:0.80030032321626187741):0.32274868145351326421[99],((4:0.95210640544727742629,((2:0.55770938697051608557,(176:1.01406905531422442124,3:0.46285937752096045772):0.19061787061805302024[61]):0.10827958807711837719[47],1:0.75984209503809674313):0.09410657724080505326[39]):0.16433090257732665962[63],(180:0.78359996919664109960,(181:0.14474061130048671009,182:0.21531764669131675527):0.49868119346895001254[100]):0.59923866083014620809[100]):0.29658204186601533348[97]):0.06748581913763042339[33],187:0.78034062638114964905):0.09444980016195900219[33]):0.22336444007558661773[74]):0.95712961153517306379[100]):1.08826021691628760379[100],116:0.03082196414996975220);
