((175:0.40677586882716409988,3:0.18241108671418584941):0.09542885220364222265[81],((4:0.25172035324943980994,5:0.57499417164132959890):0.18347405445803169344[100],(1:0.33800402783262412099,((177:0.34310853144782205160,(178:0.04973334840054668277,179:0.07628598563561792001):0.22484401661095318459[100]):0.24701224972577282002[100],((6:0.37437604615610164949,174:0.37082620555605072532):0.12293387653950908767[97],(184:0.32461700231796175586,((((116:0.01389640369726001870,118:0.01938909181138531376):0.45130163726613942154[100],((120:0.11222484806208558872,(((111:0.07489249181472773520,110:0.03828945022436606310):0.03314899621689914450[83],119:0.07559639793510881944):0.04641203536696263121[89],112:0.06367237347418926163):0.07294189339975232222[100]):0.11106443924175300741[99],((16:0.03523425218529045722,(29:0.02942534346646629925,((15:0.02351851921704107423,(24:0.01684632354356612252,(25:0.04352233095277481534,23:0.00850284874182521272):0.01899997134810017807[79]):0.06844541757714635299[100]):0.04173444184923140454[89],((12:0.05953841257498312944,27:0.06588297295937654841):0.02666208148795572511[46],28:0.02286350052546771636):0.02217774446015318215[29]):0.01190557419251137873[18]):0.02331930348645948337[39]):0.10739560885443909244[91],(169:0.07115107627453089167,168:0.04885127404919511335):0.14205336680775443314[100]):0.04986848309035468024[48]):0.23296715270856696578[100]):0.45511954530247150652[100],((((38:0.08906424422636370630,((41:0.01315254599358322944,(35:0.01659538066223855204,39:0.03546859105604205364):0.01293024592564108975[67]):0.08437989327928607786[100],(33:0.10760183037658907490,(((95:0.01708534791863529703,96:0.01159612334400874321):0.05228960703158099660[99],(94:0.01908411935865306566,98:0.01136882489455890571):0.03054842129455663177[83]):0.21133803150334742882[100],42:0.03485384745268590295):0.05754792058536140759[83]):0.01859608404578560678[38]):0.02649184918166066702[39]):0.04728036131294415662[80],71:0.12306401486380610932):0.08241121010878589559[95],((181:0.08909625245916796832,(78:0.04506186168856434610,76:0.03618485665124979156):0.06090386100276453524[100]):0.05305553568451451540[99],(((82:0.01496444744265942178,85:0.05095724307098371125):0.03984464844595857896[99],127:0.03092260432809923465):0.01487839275004439882[66],((86:0.04217387170675954838,(93:0.03575692121093382997,((90:0.03340334905564319029,92:0.02690648415864033485):0.00897805685966609167[37],(88:0.06433558440506509379,87:0.02144990730625531000):0.03650420010891501643[84]):0.00541488945387322285[28]):0.01730376330144553498[50]):0.04288064649751822943[87],((137:0.03223098235935383665,47:0.05491255391340615910):0.01271549303423953961[51],((159:0.06170004662813205476,154:0.00204219962600025269):0.02071605333486684075[100],(91:0.09255241359437352267,160:0.02926280840441673053):0.03144801007081597655[88]):0.02062267261306707788[83]):0.01140637487861245053[47]):0.01109239377643558323[42]):0.15386172116200028115[100]):0.10470288765760916994[100]):0.14987041067374012870[99],((((44:0.02344522052945733487,43:0.04302091617937803258):0.17479730181369537712[100],34:0.22777385834494562333):0.11846170966194273511[99],((((((30:0.07603182489813069267,14:0.08270900903225807121):0.05088836131946072178[82],((26:0.08332950965449723024,17:0.08470171521773357803):0.08432016987524366958[94],13:0.08403867725754241014):0.02126448596289198453[27]):0.03276590772984395994[34],(45:0.08165848213373538833,((31:0.05707266954384199870,32:0.08282406538517886330):0.03834898043569856529[96],((20:0.05158156795505402376,(22:0.01436910541905376572,21:0.05434805539036557248):0.01917336299973352448[52]):0.06277479594379034578[98],(19:0.01274514262884044423,18:0.00841912188229791518):0.10740557936681331686[100]):0.06319415713390116873[98]):0.05461016813553131594[71]):0.08779628618983219279[98]):0.05472178973094437432[78],46:0.14659749074994155027):0.10162063717416119912[98],(11:0.15420391701878555235,10:0.21827694922062540472):0.04352225225567192546[72]):0.06121160576095355937[89],(37:0.01534086399970430517,(40:0.01995654650801563165,36:0.01257962909466897594):0.01713795956022726164[97]):0.14357219132333531864[100]):0.02378737572217832705[73]):0.06900119294722847907[96],(((((8:0.14367744225301518068,102:0.11050729474060928814):0.03717075044917840521[45],(104:0.07168258421584616791,7:0.08845390278902263981):0.03867156140472966658[96]):0.03285554306689392884[32],103:0.10143667718241251852):0.06188148080238555643[67],((((((106:0.06144990837834797548,117:0.14196864291017569082):0.02842842814707342153[55],((105:0.05460914968931854935,108:0.02221847478828839137):0.05748341200399977036[100],(109:0.03791993446556447822,107:0.05897920924815507060):0.03155951514529872076[96]):0.01550238979825434640[50]):0.08001519346087557216[99],((133:0.01255009185425243375,152:0.01813027749489634979):0.07416084266139831571[100],((((149:0.03060353407385329669,(151:0.02100007311267625826,((162:0.01414676107504570131,(153:0.02345003711047241937,(122:0.01163297368657373494,125:0.00237124800005031854):0.00235765938183975666[63]):0.00238625775366504847[31]):0.00460625377432040319[12],(128:0.01287698830690140080,(145:0.01518419287820416824,140:0.03261029438629078903):0.00231240244954501045[38]):0.00842957456243453168[35]):0.00215903230668246845[11]):0.00671207820644115650[27]):0.02083632002982570980[79],((136:0.05056559983880422326,((131:0.01390588544875719437,((130:0.00817811029093230141,148:0.01928537351871956185):0.01700272327885886045[83],126:0.00771546284471186315):0.01420807344120929641[39]):0.01434128247969096784[33],(((144:0.02290447406478250333,139:0.01460569631032729125):0.01842394086130885039[88],143:0.03318014320178429288):0.00505697115589835537[16],146:0.03027394372123648827):0.00266972544405799086[9]):0.02476467556591788535[93]):0.01396369327723493911[50],((121:0.01754720505212579301,134:0.02930090960449915904):0.00473046400899861021[23],(147:0.00922632859577420320,((142:0.02335334627257359269,123:0.00462254081354672875):0.00641377656982290191[33],(150:0.00692331653823968513,(141:0.01846802936462774852,135:0.01151970921039268368):0.00458746864837796409[19]):0.00039580402319321550[8]):0.00636761490485580374[10]):0.00276672126751437760[11]):0.02806104510062625360[82]):0.01584221016754902220[45]):0.08899154714861018389[100],132:0.11325645891259451814):0.05068703522779333115[75],((129:0.01804174454273937966,156:0.01125307325316765583):0.04278123203016817588[100],(((158:0.01522211159497086248,155:0.04381841871735894789):0.01487098081683951162[79],157:0.01543325992540944651):0.01468581180472143533[84],(138:0.06207714175944232388,(161:0.04861747479784306325,124:0.02212894253709879813):0.02620729514737502736[97]):0.01095218162155585893[64]):0.02027878205589495053[64]):0.02377497151115281343[47]):0.04250406944974086110[55]):0.13369202123925158499[100]):0.06368931301405769685[94],((73:0.04892546688436745506,74:0.06772873877015266053):0.08986121892993077787[100],167:0.13519815075854837993):0.03902396917646801938[79]):0.02050098891021050543[49],(89:0.06925512804307819292,(77:0.02176890797527814350,75:0.03895021483152544262):0.03344901994248129784[94]):0.16701949780620192754[100]):0.02893777753185076615[32],((165:0.11910064470543597903,(164:0.14995559870044236628,163:0.16652269452727350152):0.05179295400647388609[93]):0.02646303516009048187[62],(((114:0.13451200012347008794,(171:0.19548425898324292560,9:0.08403622943548080815):0.02300377796519033693[35]):0.09743184242187642730[99],113:0.23922934853810692846):0.05742924443465523276[91],(170:0.14853840030588433274,115:0.13063579448457965371):0.03249925972259012918[61]):0.07319377940478841160[97]):0.04536036325209488740[69]):0.02651689806070778657[24]):0.01761122222786809521[28],((172:0.18754382078920261989,(182:0.19507184522883377897,(((((79:0.01286788014708767358,81:0.02834444961245354347):0.05233227789528812485[100],(84:0.05429005500494294562,83:0.03938366899111311187):0.02643513705160734084[89]):0.09649035823497348341[100],((183:0.14301763845767859196,63:0.08596963421555252338):0.03191361523789486287[27],(((((55:0.01380309306588922008,56:0.01452345487103028944):0.06662444920435720008[100],(57:0.02191433142995065364,61:0.03956454096360680767):0.06669861796642863327[100]):0.02548722199701530799[78],(62:0.10701584268392165533,65:0.10753550397973021813):0.04242291871285933103[31]):0.02364052634257914412[16],60:0.10138078279834432383):0.01643449233474300261[17],64:0.11482110701770806283):0.01569033750595609511[18]):0.04291828535845762516[93]):0.02342788988958732777[40],101:0.10975431002617178078):0.02924289222453903964[52],173:0.15604972240430400876):0.01713920025451771620[56]):0.02105679285665094588[76]):0.02644292123740562758[47],((80:0.06498803752273681067,((100:0.01215773685258342285,97:0.01842520844600028726):0.02809569679369685463[96],99:0.01091703766345469666):0.05395754690446585844[71]):0.09827341557718363707[100],(((70:0.13725204808896998565,72:0.10814622449219608857):0.02866494747061136203[23],(166:0.09960521351776999155,(66:0.16894077268778312506,180:0.13225880355713034997):0.02125885961940328014[28]):0.01848228190515883301[18]):0.01693382097998720817[16],((((69:0.04858429989854207154,68:0.05151160751709413926):0.04928121473660582869[99],(59:0.14785921303873192367,58:0.04101224376139119693):0.04553844584257198125[99]):0.03942848166284239342[96],67:0.11918706678764252882):0.02529820165976724711[51],((52:0.02449821735081812030,((54:0.02444447067277767671,49:0.02374104839225008381):0.00949994985004350492[64],(50:0.00399824837604248560,(51:0.00323530349895773377,53:0.00133015519610995528):0.00609414270405905616[66]):0.01143851649199458496[76]):0.02951320125803143582[99]):0.01971360549924843289[92],48:0.04263548042090812423):0.09137311576340159669[100]):0.05151149223603344873[92]):0.00557605165386789413[8]):0.03287154537108865487[46]):0.02630564787098627760[15]):0.03480119047504429131[49]):0.12536987867010254694[94]):0.20158429294620408556[100]):0.10003467796103190923[54],176:0.33893709331181948174):0.03102297767338565646[22]):0.03448476010238651218[27]):0.14536486217502103679[97]):0.06667590504211878821[58]):0.02492664614784641935[39]):0.03657142755572775905[52],2:0.23150860776720350032);
